Date,open,high,low,close,volume,vwap,timestamp,transactions,otc
2020-09-01 04:00:00,117.94,119.64,117.94,119.5,135427.0,119.1019,1598932800000,3464,
2020-09-02 04:00:00,119.75,122.44,118.97,122.26,155004.0,121.4419,1599019200000,3097,
2020-09-03 04:00:00,122.28,122.28,118.5,119.17,229559.0,119.3395,1599105600000,4173,
2020-09-04 04:00:00,120.04,120.3,116.49,118.72,225992.0,118.2644,1599192000000,4702,
2020-09-08 04:00:00,118.13,118.13,116.04,116.06,166997.0,116.7524,1599537600000,4035,
2020-09-09 04:00:00,116.64,118.63,116.64,117.89,156014.0,117.8175,1599624000000,3738,
2020-09-10 04:00:00,118.17,118.91,116.71,117.19,254552.0,117.9476,1599710400000,4917,
2020-09-11 04:00:00,117.88,118.71,117.13,118.36,125387.0,118.1053,1599796800000,3046,
2020-09-14 04:00:00,119.37,120.06,118.47,119.08,130967.0,119.3463,1600056000000,3295,
2020-09-15 04:00:00,119.44,119.8,118.12,118.33,126408.0,118.7366,1600142400000,3527,
2020-09-16 04:00:00,119.58,119.58,117.57,117.77,236656.0,118.1423,1600228800000,4193,
2020-09-17 04:00:00,116.5,117.24,115.08,115.96,355994.0,115.846,1600315200000,6165,
2020-09-18 04:00:00,116.58,116.75,114.23,115.04,604736.0,115.2847,1600401600000,5503,
2020-09-21 04:00:00,113.6,114.04,111.82,113.45,253896.0,113.085,1600660800000,3983,
2020-09-22 04:00:00,113.97,114.67,113.56,114.33,294102.0,114.2424,1600747200000,5411,
2020-09-23 04:00:00,114.2,114.53,111.71,112.14,173892.0,112.7418,1600833600000,4357,
2020-09-24 04:00:00,111.9,113.17,111.16,112.26,275032.0,112.2771,1600920000000,5077,
2020-09-25 04:00:00,111.46,112.58,111.46,112.1,255839.0,112.056,1601006400000,5294,
2020-09-28 04:00:00,113.17,114.22,112.04,112.36,231223.0,112.4868,1601265600000,4705,
2020-09-29 04:00:00,112.06,113.35,111.745,112.62,236629.0,112.7206,1601352000000,4415,
2020-09-30 04:00:00,113.27,114.06,112.5,113.2,201780.0,113.2214,1601438400000,3717,
2020-10-01 04:00:00,113.45,114.97,113.14,113.7,169001.0,114.0161,1601524800000,4334,
2020-10-02 04:00:00,112.31,114.175,112.31,112.85,168281.0,113.1791,1601611200000,3156,
2020-10-05 04:00:00,113.36,114.93,113.21,114.55,152575.0,114.3512,1601870400000,3730,
2020-10-06 04:00:00,115.01,115.9,113.92,114.56,225516.0,114.6826,1601956800000,3405,
2020-10-07 04:00:00,115.09,116.17,114.5,114.98,174607.0,115.0681,1602043200000,3282,
2020-10-08 04:00:00,115.8,116.79,115.52,116.52,139926.0,116.2117,1602129600000,2878,
2020-10-09 04:00:00,118.12,118.39,116.185,116.81,156855.0,116.9983,1602216000000,3292,
2020-10-12 04:00:00,117.05,118.825,116.7,118.04,139152.0,118.1671,1602475200000,3493,
2020-10-13 04:00:00,117.73,118.91,117.25,117.56,160908.0,117.7923,1602561600000,4132,
2020-10-14 04:00:00,117.5,118.03,116.04,116.44,101550.0,116.7764,1602648000000,3247,
2020-10-15 04:00:00,114.72,116.59,114.22,116.34,126386.0,115.7548,1602734400000,3377,
2020-10-16 04:00:00,116.71,117.23,116.19,116.35,98954.0,116.4662,1602820800000,3423,
2020-10-19 04:00:00,116.64,116.64,114.58,115.15,115074.0,115.3078,1603080000000,3192,
2020-10-20 04:00:00,116.05,117.56,115.22,116.96,196591.0,116.9003,1603166400000,4148,
2020-10-21 04:00:00,117.27,118.76,117.27,117.74,134813.0,117.9309,1603252800000,3494,
2020-10-22 04:00:00,117.89,118.475,116.745,118.31,165374.0,118.0531,1603339200000,3869,
2020-10-23 04:00:00,118.75,118.97,117.48,118.35,107060.0,118.2413,1603425600000,2758,
2020-10-26 04:00:00,117.35,117.49,115.93,117.46,115249.0,117.0396,1603684800000,3334,
2020-10-27 04:00:00,117.17,117.19,115.61,115.65,126182.0,116.1363,1603771200000,2875,
2020-10-28 04:00:00,114.11,114.61,112.25,112.34,171553.0,113.0023,1603857600000,4556,
2020-10-29 04:00:00,112.3,113.1,110.3445,112.94,280968.0,112.4397,1603944000000,5641,
2020-10-30 04:00:00,116.25,116.76,113.54,114.09,381070.0,114.8541,1604030400000,6677,
2020-11-02 05:00:00,115.17,118.29,114.67,118.19,216987.0,117.5163,1604293200000,6465,
2020-11-03 05:00:00,118.5,121.46,118.329,119.56,245802.0,119.7664,1604379600000,5334,
2020-11-04 05:00:00,120.0,120.02,118.1,119.05,153081.0,119.1276,1604466000000,3070,
2020-11-05 05:00:00,120.61,123.1,120.43,122.91,187373.0,122.4095,1604552400000,5037,
2020-11-06 05:00:00,123.59,124.61,122.47,123.6,223676.0,123.3711,1604638800000,5235,
2020-11-09 05:00:00,127.62,128.86,122.11,123.17,340436.0,123.9123,1604898000000,6303,
2020-11-10 05:00:00,123.39,128.8,122.9466,127.61,327299.0,127.3245,1604984400000,5732,
2020-11-11 05:00:00,127.75,127.75,124.365,125.27,196830.0,125.4818,1605070800000,4645,
2020-11-12 05:00:00,124.24,125.21,122.59,124.27,127541.0,123.897,1605157200000,3168,
2020-11-13 05:00:00,124.85,126.0,124.1,125.07,127071.0,124.9662,1605243600000,2518,
2020-11-16 05:00:00,126.28,127.0,125.57,126.86,208990.0,126.5493,1605502800000,4056,
2020-11-17 05:00:00,126.26,128.1,125.7,127.36,193782.0,127.4436,1605589200000,3483,
2020-11-18 05:00:00,127.43,127.86,125.97,126.37,174016.0,126.5653,1605675600000,3498,
2020-11-19 05:00:00,126.7,127.615,126.0,127.23,215093.0,126.9688,1605762000000,3643,
2020-11-20 05:00:00,127.51,128.36,127.19,127.81,240349.0,127.8297,1605848400000,4417,
2020-11-23 05:00:00,128.06,129.12,126.4024,126.86,183816.0,127.1047,1606107600000,4480,
2020-11-24 05:00:00,128.16,128.47,126.875,127.88,241485.0,127.8403,1606194000000,4663,
2020-11-25 05:00:00,128.48,128.48,125.77,126.29,138491.0,126.4606,1606280400000,3168,
2020-11-27 05:00:00,126.55,127.3,126.08,127.24,67786.0,126.8988,1606453200000,1156,
2020-11-30 05:00:00,126.79,126.93,125.685,126.32,205816.0,126.2899,1606712400000,4464,
2020-12-01 05:00:00,127.15,128.58,126.42,127.82,166776.0,127.5922,1606798800000,3493,
2020-12-02 05:00:00,127.36,128.05,125.72,126.26,135337.0,126.2413,1606885200000,3679,
2020-12-03 05:00:00,126.07,127.11,125.15,125.87,140555.0,125.9528,1606971600000,3506,
2020-12-04 05:00:00,125.48,127.8,125.48,127.68,145778.0,127.2552,1607058000000,3714,
2020-12-07 05:00:00,127.99,128.99,127.64,128.63,116030.0,128.5742,1607317200000,3421,
2020-12-08 05:00:00,128.29,130.9,127.9381,129.19,162681.0,129.5434,1607403600000,3988,
2020-12-09 05:00:00,129.13,130.18,128.66,129.53,147847.0,129.2722,1607490000000,3175,
2020-12-10 05:00:00,129.47,131.09,129.02,130.47,249398.0,130.427,1607576400000,5890,
2020-12-11 05:00:00,129.59,131.1,129.59,130.45,166609.0,130.2374,1607662800000,4130,
2020-12-14 05:00:00,131.05,131.99,128.2,128.41,208644.0,129.3225,1607922000000,4107,
2020-12-15 05:00:00,128.56,130.65,128.31,130.26,159989.0,129.9775,1608008400000,3943,
2020-12-16 05:00:00,130.99,131.7399,130.2,131.1,267618.0,130.972,1608094800000,4523,
2020-12-17 05:00:00,131.29,133.69,131.0,133.14,298838.0,133.0604,1608181200000,5343,
2020-12-18 05:00:00,134.0,134.67,133.64,134.1,700519.0,134.1003,1608267600000,5236,
2020-12-21 05:00:00,132.78,135.0,131.5,134.89,213500.0,134.2583,1608526800000,4507,
2020-12-22 05:00:00,134.65,136.22,134.01,134.5,258447.0,134.809,1608613200000,4793,
2020-12-23 05:00:00,134.52,135.75,134.45,134.53,192474.0,134.9566,1608699600000,3809,
2020-12-24 05:00:00,135.0,136.37,134.65,135.7,85108.0,135.4382,1608786000000,1384,
2020-12-28 05:00:00,136.19,137.14,135.055,135.68,101583.0,135.8196,1609131600000,2604,
2020-12-29 05:00:00,136.27,136.75,134.8387,135.31,96369.0,135.4347,1609218000000,2865,
2020-12-30 05:00:00,135.91,137.36,135.456,136.39,100701.0,136.3678,1609304400000,3548,
2020-12-31 05:00:00,136.77,137.32,135.61,136.89,170395.0,136.7854,1609390800000,2649,
2021-01-04 05:00:00,135.92,137.97,133.68,134.0,327422.0,134.5965,1609736400000,5867,
2021-01-05 05:00:00,134.13,135.29,133.54,133.7,262716.0,133.971,1609822800000,4337,
2021-01-06 05:00:00,134.22,137.97,134.22,137.72,290623.0,137.3312,1609909200000,4243,
2021-01-07 05:00:00,137.52,140.0,136.505,139.7,194994.0,139.2421,1609995600000,4375,
2021-01-08 05:00:00,139.57,140.62,137.755,139.07,143024.0,139.0772,1610082000000,3259,
2021-01-11 05:00:00,139.5,139.87,138.38,138.79,119158.0,139.0473,1610341200000,2744,
2021-01-12 05:00:00,138.81,139.23,137.09,138.15,202415.0,138.1879,1610427600000,3725,
2021-01-13 05:00:00,137.95,139.58,136.14,138.58,246658.0,138.0696,1610514000000,5012,
2021-01-14 05:00:00,138.5,140.71,137.52,139.45,183526.0,139.4425,1610600400000,3687,
2021-01-15 05:00:00,139.04,141.33,138.37,138.83,152202.0,139.7228,1610686800000,4448,
2021-01-19 05:00:00,139.58,140.62,137.25,137.26,224921.0,138.1068,1611032400000,4898,
2021-01-20 05:00:00,137.73,140.75,137.49,140.62,256369.0,139.7158,1611118800000,4078,
2021-01-21 05:00:00,140.27,141.125,138.01,138.11,210507.0,139.2917,1611205200000,3417,
2021-01-22 05:00:00,137.86,138.38,137.11,138.19,229404.0,137.9471,1611291600000,4134,
2021-01-25 05:00:00,138.16,139.92,137.85,139.57,190518.0,138.9968,1611550800000,4566,
2021-01-26 05:00:00,139.43,140.0,137.08,138.85,127935.0,138.966,1611637200000,3922,
2021-01-27 05:00:00,137.53,137.53,133.15,133.25,188819.0,134.6205,1611723600000,5091,
2021-01-28 05:00:00,134.08,135.8,133.6064,135.25,168319.0,135.0969,1611810000000,4192,
2021-01-29 05:00:00,134.43,135.36,131.82,132.97,379928.0,133.1332,1611896400000,5259,
2021-02-01 05:00:00,134.13,134.39,131.805,134.09,186157.0,133.6002,1612155600000,4929,
2021-02-02 05:00:00,135.05,138.12,134.74,136.94,194787.0,136.9806,1612242000000,4051,
2021-02-03 05:00:00,136.16,137.3,135.385,136.56,141668.0,136.3619,1612328400000,3331,
2021-02-04 05:00:00,136.12,138.4,135.0,138.0,252818.0,137.7225,1612414800000,5076,
2021-02-05 05:00:00,139.46,140.73,138.715,140.66,179828.0,140.202,1612501200000,4231,
2021-02-08 05:00:00,141.25,142.0,140.53,141.98,173867.0,141.3997,1612760400000,3628,
2021-02-09 05:00:00,141.96,142.89,141.22,142.17,184684.0,141.9315,1612846800000,3802,
2021-02-10 05:00:00,143.0,144.105,142.505,143.25,152312.0,143.1315,1612933200000,3088,
2021-02-11 05:00:00,143.5,144.32,142.06,142.97,197869.0,142.9529,1613019600000,3205,
2021-02-12 05:00:00,142.38,144.76,142.38,144.63,105709.0,144.0305,1613106000000,3162,
2021-02-16 05:00:00,144.61,144.72,142.9,143.6,178906.0,143.6304,1613451600000,3212,
2021-02-17 05:00:00,143.75,144.175,142.445,143.21,210053.0,143.2547,1613538000000,4294,
2021-02-18 05:00:00,142.62,143.18,140.99,140.99,209756.0,141.6798,1613624400000,4282,
2021-02-19 05:00:00,138.57,138.57,131.61,132.24,496579.0,133.3948,1613710800000,8364,
2021-02-22 05:00:00,131.25,131.37,127.5,129.1,350663.0,128.6963,1613970000000,6632,
2021-02-23 05:00:00,127.82,128.72,126.78,128.28,496655.0,128.0299,1614056400000,7081,
2021-02-24 05:00:00,128.26,129.04,127.8,128.76,214650.0,128.6454,1614142800000,5288,
2021-02-25 05:00:00,128.77,130.91,128.77,130.3,380106.0,130.228,1614229200000,6306,
2021-02-26 05:00:00,131.06,131.57,129.555,130.07,387557.0,130.4052,1614315600000,6419,
2021-03-01 05:00:00,130.78,132.0,129.875,130.6,284590.0,130.569,1614574800000,5215,
2021-03-02 05:00:00,130.44,130.6646,129.47,130.35,369113.0,130.1716,1614661200000,5662,
2021-03-03 05:00:00,130.37,132.18,129.5037,131.05,221838.0,131.1895,1614747600000,4741,
2021-03-04 05:00:00,130.89,131.9,130.125,130.4,494167.0,130.8114,1614834000000,7487,
2021-03-05 05:00:00,131.14,134.14,130.41,134.09,206068.0,133.0329,1614920400000,5466,
2021-03-08 05:00:00,134.83,138.48,134.1,137.71,235528.0,137.4953,1615179600000,5641,
2021-03-09 05:00:00,138.68,140.67,137.68,137.69,252365.0,138.5929,1615266000000,5082,
2021-03-10 05:00:00,138.21,140.12,137.935,139.38,151921.0,139.306,1615352400000,3757,
2021-03-11 05:00:00,139.19,140.415,138.74,139.38,172347.0,139.393,1615438800000,4294,
2021-03-12 05:00:00,140.0,141.24,139.2648,140.77,220486.0,140.5631,1615525200000,4815,
2021-03-15 04:00:00,141.78,143.03,141.015,142.13,363485.0,141.8914,1615780800000,7493,
2021-03-16 04:00:00,141.71,142.1,139.3316,140.5,282823.0,140.4578,1615867200000,5800,
2021-03-17 04:00:00,139.91,141.74,139.376,141.28,183157.0,140.8269,1615953600000,5625,
2021-03-18 04:00:00,141.34,142.47,140.94,141.51,175844.0,141.7781,1616040000000,4687,
2021-03-19 04:00:00,142.06,142.33,139.04,139.31,650934.0,139.8191,1616126400000,4785,
2021-03-22 04:00:00,138.97,141.86,138.26,141.59,250530.0,140.9814,1616385600000,5534,
2021-03-23 04:00:00,140.53,142.56,140.16,140.77,334309.0,141.2983,1616472000000,5244,
2021-03-24 04:00:00,141.16,144.33,141.16,141.84,303552.0,142.7896,1616558400000,6635,
2021-03-25 04:00:00,141.4,143.23,140.45,142.47,267490.0,142.4246,1616644800000,5305,
2021-03-26 04:00:00,143.0,144.82,142.19,144.82,288473.0,143.5329,1616731200000,5733,
2021-03-29 04:00:00,144.24,145.9,143.39,144.77,275677.0,144.4699,1616990400000,5935,
2021-03-30 04:00:00,144.33,144.41,142.6,143.08,249377.0,143.166,1617076800000,6291,
2021-03-31 04:00:00,143.03,143.47,141.23,141.67,410223.0,142.2859,1617163200000,7417,
2021-04-01 04:00:00,141.99,143.98,141.38,143.87,230075.0,143.1463,1617249600000,5832,
2021-04-05 04:00:00,144.95,144.95,143.34,144.69,197422.0,144.3699,1617595200000,4512,
2021-04-06 04:00:00,144.04,145.99,143.32,145.97,207546.0,145.3639,1617681600000,4213,
2021-04-07 04:00:00,145.28,145.5,143.38,143.59,190238.0,144.3087,1617768000000,4825,
2021-04-08 04:00:00,143.8,143.96,142.19,143.68,159620.0,143.4627,1617854400000,3808,
2021-04-09 04:00:00,144.42,145.3,143.28,145.2,153267.0,144.7392,1617940800000,2851,
2021-04-12 04:00:00,144.68,146.38,144.68,146.21,101275.0,145.988,1618200000000,3501,
2021-04-13 04:00:00,146.6,147.01,145.44,146.33,162230.0,146.1848,1618286400000,3412,
2021-04-14 04:00:00,144.5,146.15,144.5,145.81,188171.0,145.5408,1618372800000,4552,
2021-04-15 04:00:00,146.92,147.895,146.03,147.2,185979.0,147.0993,1618459200000,5057,
2021-04-16 04:00:00,149.14,149.59,147.57,148.08,326907.0,148.3203,1618545600000,6132,
2021-04-19 04:00:00,148.23,149.79,147.75,149.71,207473.0,149.115,1618804800000,4378,
2021-04-20 04:00:00,147.0,150.75,146.67,150.42,200032.0,149.738,1618891200000,3573,
2021-04-21 04:00:00,150.15,152.36,150.15,151.94,193875.0,151.7567,1618977600000,3461,
2021-04-22 04:00:00,152.02,152.02,149.94,150.07,280304.0,150.6457,1619064000000,4764,
2021-04-23 04:00:00,150.29,151.74,149.83,151.45,189253.0,151.2942,1619150400000,4008,
2021-04-26 04:00:00,151.75,152.18,150.9,150.92,195696.0,151.3711,1619409600000,4325,
2021-04-27 04:00:00,150.1,151.67,149.48,151.64,216395.0,151.1845,1619496000000,3893,
2021-04-28 04:00:00,151.43,153.07,151.05,151.12,196459.0,151.6205,1619582400000,3938,
2021-04-29 04:00:00,151.44,152.15,150.4,150.92,227195.0,150.8949,1619668800000,4937,
2021-04-30 04:00:00,150.0,151.9371,147.9,150.81,367667.0,150.444,1619755200000,6827,
2021-05-03 04:00:00,152.16,153.2,151.74,152.46,216302.0,152.5601,1620014400000,4729,
2021-05-04 04:00:00,152.89,156.14,152.89,155.02,212005.0,154.8874,1620100800000,5373,
2021-05-05 04:00:00,155.3,155.3,153.39,154.18,190492.0,154.2416,1620187200000,4855,
2021-05-06 04:00:00,154.13,156.63,153.64,156.52,241686.0,155.3294,1620273600000,5088,
2021-05-07 04:00:00,155.55,157.93,155.55,157.56,188808.0,157.2668,1620360000000,4384,
2021-05-10 04:00:00,157.74,158.9721,155.39,155.48,228841.0,157.0726,1620619200000,5302,
2021-05-11 04:00:00,154.55,155.6581,153.7236,153.99,302115.0,154.1822,1620705600000,5463,
2021-05-12 04:00:00,153.61,154.55,151.61,151.61,167430.0,152.169,1620792000000,4811,
2021-05-13 04:00:00,151.4,155.29,151.34,154.62,310175.0,154.2699,1620878400000,5624,
2021-05-14 04:00:00,154.97,155.29,153.18,153.54,174422.0,153.6577,1620964800000,3512,
2021-05-17 04:00:00,153.11,154.09,152.23,153.11,137768.0,153.2793,1621224000000,3579,
2021-05-18 04:00:00,153.41,154.0,150.86,150.92,173459.0,151.7972,1621310400000,4177,
2021-05-19 04:00:00,150.0,151.04,148.6,149.54,162730.0,149.4216,1621396800000,4471,
2021-05-20 04:00:00,149.27,150.61,149.04,149.74,124445.0,149.8875,1621483200000,3915,
2021-05-21 04:00:00,149.93,150.58,148.88,149.63,135972.0,149.587,1621569600000,3343,
2021-05-24 04:00:00,150.47,150.73,148.955,149.26,143760.0,149.3027,1621828800000,4115,
2021-05-25 04:00:00,149.64,150.115,147.47,147.73,200380.0,148.0742,1621915200000,3202,
2021-05-26 04:00:00,148.5,149.39,147.17,147.86,114848.0,147.9715,1622001600000,2866,
2021-05-27 04:00:00,148.62,149.15,146.48,146.77,173377.0,147.1098,1622088000000,3939,
2021-05-28 04:00:00,147.29,147.5,146.42,147.31,147475.0,147.1705,1622174400000,4038,
2021-06-01 04:00:00,147.98,148.81,146.61,146.88,174935.0,146.9939,1622520000000,4060,
2021-06-02 04:00:00,146.85,147.885,145.12,145.66,284854.0,145.7198,1622606400000,5241,
2021-06-03 04:00:00,145.48,146.12,144.74,145.4,225267.0,145.1861,1622692800000,4753,
2021-06-04 04:00:00,146.04,146.265,144.78,145.56,153097.0,145.4376,1622779200000,3855,
2021-06-07 04:00:00,145.53,146.09,142.03,142.52,186100.0,142.7919,1623038400000,4663,
2021-06-08 04:00:00,142.53,142.905,141.12,142.78,184548.0,142.4102,1623124800000,3412,
2021-06-09 04:00:00,142.57,143.205,141.64,142.17,175797.0,142.2982,1623211200000,4131,
2021-06-10 04:00:00,142.39,145.05,142.23,144.99,217131.0,144.4085,1623297600000,4916,
2021-06-11 04:00:00,145.26,146.2512,144.24,145.83,153868.0,145.2691,1623384000000,3839,
2021-06-14 04:00:00,146.0,146.0,143.07,143.49,224736.0,143.6897,1623643200000,4140,
2021-06-15 04:00:00,143.54,144.91,143.365,144.33,215436.0,144.2368,1623729600000,4996,
2021-06-16 04:00:00,144.45,145.19,142.44,142.62,169871.0,143.2163,1623816000000,4321,
2021-06-17 04:00:00,142.76,143.6002,139.97,141.51,161254.0,141.3253,1623902400000,4444,
2021-06-18 04:00:00,140.75,141.9,139.91,140.1,344126.0,140.5085,1623988800000,4463,
2021-06-21 04:00:00,140.98,142.2,140.17,141.58,235212.0,141.3265,1624248000000,5570,
2021-06-22 04:00:00,141.89,142.655,141.16,141.63,209457.0,141.7363,1624334400000,3633,
2021-06-23 04:00:00,141.39,142.16,140.1,140.17,229324.0,140.7527,1624420800000,4362,
2021-06-24 04:00:00,140.93,140.93,139.7875,140.18,143684.0,140.1675,1624507200000,3231,
2021-06-25 04:00:00,140.18,141.49,140.11,140.92,636539.0,140.7812,1624593600000,7983,
2021-06-28 04:00:00,141.08,141.42,139.73,140.71,220060.0,140.5427,1624852800000,5483,
2021-06-29 04:00:00,140.81,141.97,140.06,140.28,153301.0,140.6254,1624939200000,4890,
2021-06-30 04:00:00,140.32,141.92,140.288,140.84,187484.0,140.9234,1625025600000,3447,
2021-07-01 04:00:00,141.11,141.7,140.9,141.12,226782.0,141.2555,1625112000000,4380,
2021-07-02 04:00:00,141.48,141.935,140.055,140.41,122852.0,140.4788,1625198400000,3267,
2021-07-06 04:00:00,140.4,140.87,138.64,140.05,275006.0,139.8233,1625544000000,4981,
2021-07-07 04:00:00,139.82,141.46,139.82,141.02,221053.0,140.9818,1625630400000,6000,
2021-07-08 04:00:00,139.94,140.6,139.01,139.27,155927.0,139.5328,1625716800000,4473,
2021-07-09 04:00:00,139.85,141.28,139.76,141.18,231135.0,140.9013,1625803200000,4498,
2021-07-12 04:00:00,140.82,141.01,140.05,140.42,175203.0,140.4271,1626062400000,4507,
2021-07-13 04:00:00,140.21,141.21,138.36,138.5,224799.0,138.9632,1626148800000,4566,
2021-07-14 04:00:00,138.67,139.15,138.01,138.44,181912.0,138.6523,1626235200000,3482,
2021-07-15 04:00:00,137.75,139.01,137.3179,138.56,157716.0,138.3374,1626321600000,3928,
2021-07-16 04:00:00,139.01,140.35,138.4,139.04,179572.0,139.4214,1626408000000,4302,
2021-07-19 04:00:00,138.04,138.93,136.375,137.13,294351.0,137.4002,1626667200000,5691,
2021-07-20 04:00:00,137.3,139.65,137.0,137.02,295834.0,137.6278,1626753600000,5379,
2021-07-21 04:00:00,137.3,138.01,135.93,136.06,158803.0,136.4393,1626840000000,3709,
2021-07-22 04:00:00,136.33,136.74,134.66,134.67,204373.0,135.1321,1626926400000,3902,
2021-07-23 04:00:00,134.98,136.28,134.285,136.24,176369.0,135.8372,1627012800000,3636,
2021-07-26 04:00:00,136.76,137.13,135.9,136.72,192221.0,136.7248,1627272000000,4016,
2021-07-27 04:00:00,136.11,138.25,135.39,136.76,151361.0,137.044,1627358400000,4280,
2021-07-28 04:00:00,136.52,137.815,136.225,137.65,166059.0,137.3146,1627444800000,3180,
2021-07-29 04:00:00,138.72,140.015,138.72,139.05,315950.0,139.4653,1627531200000,5959,
2021-07-30 04:00:00,136.0,139.51,128.18,128.92,842429.0,129.6051,1627617600000,10589,
2021-08-02 04:00:00,128.44,130.58,127.69,129.91,453619.0,129.6103,1627876800000,8156,
2021-08-03 04:00:00,129.55,129.74,127.67,128.63,418304.0,128.5078,1627963200000,6382,
2021-08-04 04:00:00,128.76,129.4,126.32,126.77,294483.0,126.9891,1628049600000,5075,
2021-08-05 04:00:00,127.44,128.2,126.64,127.5,158039.0,127.3729,1628136000000,3798,
2021-08-06 04:00:00,128.08,129.46,127.92,128.43,184593.0,128.7576,1628222400000,4378,
2021-08-09 04:00:00,128.7,130.74,128.62,130.08,297217.0,129.998,1628481600000,6481,
2021-08-10 04:00:00,129.31,131.21,128.955,129.2,200446.0,129.6543,1628568000000,5375,
2021-08-11 04:00:00,130.19,132.32,129.17,131.63,305931.0,131.1997,1628654400000,6541,
2021-08-12 04:00:00,132.54,133.6,131.91,132.68,247773.0,132.7391,1628740800000,5372,
2021-08-13 04:00:00,132.89,133.89,132.51,133.05,174251.0,133.1669,1628827200000,4532,
2021-08-16 04:00:00,132.59,133.17,131.66,132.88,106271.0,132.6461,1629086400000,3480,
2021-08-17 04:00:00,132.33,133.14,131.6,133.01,213098.0,132.7501,1629172800000,3180,
2021-08-18 04:00:00,132.28,133.098,132.04,132.05,110842.0,132.4424,1629259200000,3584,
2021-08-19 04:00:00,131.44,132.9535,131.4,132.41,94039.0,132.4349,1629345600000,3401,
2021-08-20 04:00:00,132.1,133.91,131.934,133.52,118563.0,133.3878,1629432000000,3514,
2021-08-23 04:00:00,134.17,134.55,132.49,132.96,111239.0,133.157,1629691200000,4151,
2021-08-24 04:00:00,132.95,133.72,132.22,132.96,85735.0,133.0471,1629777600000,2836,
2021-08-25 04:00:00,133.08,134.5,132.94,134.13,115978.0,134.1083,1629864000000,3408,
2021-08-26 04:00:00,133.6,133.775,132.48,132.66,133592.0,132.9536,1629950400000,3499,
2021-08-27 04:00:00,133.35,134.95,133.3,134.53,180679.0,134.4224,1630036800000,4097,
2021-08-30 04:00:00,135.16,136.23,135.0,135.23,122282.0,135.5252,1630296000000,3493,
2021-08-31 04:00:00,135.56,135.95,134.22,134.8,154055.0,134.7415,1630382400000,3450,
2021-09-01 04:00:00,135.11,135.5,134.14,135.01,135818.0,134.9923,1630468800000,4168,
2021-09-02 04:00:00,135.5,136.22,134.23,135.14,165545.0,134.9444,1630555200000,3404,
2021-09-03 04:00:00,135.28,136.19,134.93,135.15,112691.0,135.3246,1630641600000,3146,
2021-09-07 04:00:00,134.72,134.72,130.93,131.08,134959.0,131.9618,1630987200000,3916,
2021-09-08 04:00:00,130.34,131.35,130.34,130.88,325204.0,130.9567,1631073600000,6202,
2021-09-09 04:00:00,130.41,131.12,128.37,128.63,227704.0,129.4641,1631160000000,4824,
2021-09-10 04:00:00,128.27,129.3,125.82,125.84,340991.0,126.6979,1631246400000,5618,
2021-09-13 04:00:00,125.46,126.115,123.76,124.76,239849.0,124.9576,1631505600000,6655,
2021-09-14 04:00:00,125.13,126.42,124.22,124.58,186002.0,125.1033,1631592000000,4425,
2021-09-15 04:00:00,123.9,125.425,123.3,124.63,208199.0,124.6663,1631678400000,5303,
2021-09-16 04:00:00,124.47,125.32,122.04,122.3,176805.0,122.7051,1631764800000,5020,
2021-09-17 04:00:00,122.2,122.635,120.72,121.23,568376.0,121.2393,1631851200000,5514,
2021-09-20 04:00:00,119.76,121.88,119.54,121.86,289162.0,121.0261,1632110400000,5363,
2021-09-21 04:00:00,121.96,122.32,119.83,120.06,240573.0,120.5504,1632196800000,4026,
2021-09-22 04:00:00,120.38,121.205,119.44,120.28,235024.0,120.492,1632283200000,6193,
2021-09-23 04:00:00,120.84,121.66,120.28,121.01,162149.0,121.1017,1632369600000,3827,
2021-09-24 04:00:00,120.66,121.41,120.27,120.36,186267.0,120.8037,1632456000000,4101,
2021-09-27 04:00:00,120.18,121.13,119.791,120.33,206565.0,120.4529,1632715200000,4801,
2021-09-28 04:00:00,120.37,120.87,118.88,120.03,230812.0,120.0558,1632801600000,4782,
2021-09-29 04:00:00,120.0,121.29,120.0,120.38,237584.0,120.6936,1632888000000,5539,
2021-09-30 04:00:00,120.79,121.43,119.3,119.35,315874.0,119.9825,1632974400000,7731,
2021-10-01 04:00:00,119.84,122.315,118.61,121.58,259773.0,120.9399,1633060800000,6562,
2021-10-04 04:00:00,121.5,122.65,120.99,122.29,241877.0,122.0715,1633320000000,5460,
2021-10-05 04:00:00,121.88,122.87,120.62,121.66,249236.0,121.9625,1633406400000,4487,
2021-10-06 04:00:00,121.07,123.24,120.45,123.1,240857.0,122.2556,1633492800000,5366,
2021-10-07 04:00:00,123.28,126.04,123.23,124.26,252691.0,124.8592,1633579200000,5250,
2021-10-08 04:00:00,124.59,125.09,123.76,124.51,218952.0,124.5064,1633665600000,3907,
2021-10-11 04:00:00,124.47,126.205,124.27,124.57,182791.0,125.2614,1633924800000,3893,
2021-10-12 04:00:00,124.12,125.21,123.85,124.49,99752.0,124.5046,1634011200000,2769,
2021-10-13 04:00:00,125.19,127.57,124.76,127.39,266429.0,126.7096,1634097600000,6646,
2021-10-14 04:00:00,127.51,128.36,126.88,128.01,215429.0,127.8913,1634184000000,7049,
2021-10-15 04:00:00,128.61,129.25,127.71,128.22,193182.0,128.5696,1634270400000,5012,
2021-10-18 04:00:00,127.64,128.69,126.91,127.82,221111.0,127.9428,1634529600000,4513,
2021-10-19 04:00:00,128.14,128.55,127.17,127.55,143261.0,127.619,1634616000000,4054,
2021-10-20 04:00:00,127.26,128.76,126.93,128.16,179992.0,127.8175,1634702400000,4875,
2021-10-21 04:00:00,128.04,129.56,127.3,129.07,139686.0,128.7471,1634788800000,4196,
2021-10-22 04:00:00,128.61,129.79,127.68,127.77,131577.0,128.321,1634875200000,3556,
2021-10-25 04:00:00,127.96,128.875,126.71,127.79,216361.0,128.1707,1635134400000,6146,
2021-10-26 04:00:00,127.59,128.275,126.51,126.89,188493.0,127.389,1635220800000,6096,
2021-10-27 04:00:00,126.5,127.2,125.28,125.32,202222.0,125.948,1635307200000,5990,
2021-10-28 04:00:00,125.1,126.34,125.1,125.98,218722.0,125.9464,1635393600000,6283,
2021-10-29 04:00:00,123.42,125.43,119.9,120.78,696439.0,121.3292,1635480000000,10252,
2021-11-01 04:00:00,119.98,125.67,119.98,125.18,581770.0,123.573,1635739200000,10869,
2021-11-02 04:00:00,125.86,128.11,124.5,127.4,275548.0,127.1986,1635825600000,6488,
2021-11-03 04:00:00,127.49,128.5,126.17,128.4,290007.0,127.5742,1635912000000,7110,
2021-11-04 04:00:00,128.52,129.78,128.36,128.55,326327.0,128.8646,1635998400000,5814,
2021-11-05 04:00:00,129.5,131.66,129.13,131.5,335702.0,130.8708,1636084800000,7022,
2021-11-08 05:00:00,131.95,132.27,129.07,130.64,254995.0,130.2629,1636347600000,7177,
2021-11-09 05:00:00,130.22,131.47,129.746,130.36,170687.0,130.4672,1636434000000,4197,
2021-11-10 05:00:00,130.66,131.08,129.17,129.58,146979.0,129.7819,1636520400000,3784,
2021-11-11 05:00:00,129.77,130.5,128.73,129.83,131765.0,129.6831,1636606800000,4721,
2021-11-12 05:00:00,130.43,131.62,129.51,131.49,177537.0,130.9867,1636693200000,4106,
2021-11-15 05:00:00,132.42,132.995,130.8,132.32,190839.0,132.4222,1636952400000,4775,
2021-11-16 05:00:00,132.26,135.81,132.0,134.24,402912.0,134.5993,1637038800000,8170,
2021-11-17 05:00:00,134.49,135.2,132.61,134.45,267262.0,134.0237,1637125200000,6312,
2021-11-18 05:00:00,134.14,134.14,129.51,129.64,258834.0,130.5923,1637211600000,5889,
2021-11-19 05:00:00,129.67,131.52,129.475,130.15,212760.0,130.632,1637298000000,4664,
2021-11-22 05:00:00,130.5,131.49,128.79,128.8,274477.0,129.8542,1637557200000,5782,
2021-11-23 05:00:00,128.8,130.67,128.5,129.7,155839.0,129.9159,1637643600000,4080,
2021-11-24 05:00:00,129.34,130.08,127.711,128.18,220375.0,128.3507,1637730000000,5810,
2021-11-26 05:00:00,126.51,129.09,126.34,126.61,166980.0,127.5135,1637902800000,3580,
2021-11-29 05:00:00,128.05,128.3,125.495,125.87,228054.0,126.1829,1638162000000,5652,
2021-11-30 05:00:00,124.69,125.44,119.32,119.59,593838.0,120.7522,1638248400000,10206,
2021-12-01 05:00:00,120.67,122.43,116.67,116.79,785990.0,119.4917,1638334800000,12452,
2021-12-02 05:00:00,117.32,120.7,116.94,119.65,578317.0,119.6331,1638421200000,10302,
2021-12-03 05:00:00,119.64,120.71,117.63,118.8,368281.0,118.6794,1638507600000,6820,
2021-12-06 05:00:00,120.23,121.22,118.83,120.22,615408.0,119.7886,1638766800000,10109,
2021-12-07 05:00:00,121.2,121.74,119.77,120.28,377871.0,120.5145,1638853200000,6901,
2021-12-08 05:00:00,120.6,121.27,119.46,120.82,210139.0,120.5689,1638939600000,5103,
2021-12-09 05:00:00,120.22,121.01,119.225,119.53,193599.0,119.7823,1639026000000,4517,
2021-12-10 05:00:00,120.08,120.965,119.49,119.74,168860.0,119.9552,1639112400000,4211,
2021-12-13 05:00:00,119.47,120.62,118.2712,118.61,217934.0,118.7627,1639371600000,4581,
2021-12-14 05:00:00,118.0,119.295,116.79,116.95,292575.0,117.532,1639458000000,4867,
2021-12-15 05:00:00,117.19,119.07,117.19,118.37,309782.0,118.2828,1639544400000,7518,
2021-12-16 05:00:00,119.24,120.19,118.255,118.69,242642.0,119.1353,1639630800000,6262,
2021-12-17 05:00:00,118.69,118.75,115.67,115.89,800524.0,116.4015,1639717200000,8871,
2021-12-20 05:00:00,114.82,115.965,112.37,113.67,291938.0,113.5011,1639976400000,6321,
2021-12-21 05:00:00,114.23,115.89,113.71,115.39,301775.0,115.1373,1640062800000,5882,
2021-12-22 05:00:00,115.05,116.28,114.41,115.39,379823.0,115.3629,1640149200000,6431,
2021-12-23 05:00:00,115.67,116.56,115.125,116.33,223847.0,116.1529,1640235600000,4802,
2021-12-27 05:00:00,116.64,120.03,116.6,119.89,352150.0,118.8687,1640581200000,6875,
2021-12-28 05:00:00,120.37,122.1,120.06,121.44,438677.0,121.3554,1640667600000,8248,
2021-12-29 05:00:00,121.45,123.5,121.45,122.1,953008.0,122.3433,1640754000000,7278,
2021-12-30 05:00:00,122.5,123.5,121.61,121.88,237166.0,122.2921,1640840400000,5299,
2021-12-31 05:00:00,121.61,122.88,121.225,122.48,226442.0,122.4008,1640926800000,5309,
2022-01-03 05:00:00,122.44,123.0,119.29,120.82,234856.0,120.7253,1641186000000,6149,
2022-01-04 05:00:00,121.0,122.92,119.9573,121.38,337335.0,121.5006,1641272400000,6296,
2022-01-05 05:00:00,121.24,124.14,121.24,123.06,367631.0,123.1979,1641358800000,7349,
2022-01-06 05:00:00,123.54,123.9975,122.01,122.55,231889.0,122.6979,1641445200000,5485,
2022-01-07 05:00:00,122.72,123.79,121.97,123.68,335119.0,123.3977,1641531600000,5705,
2022-01-10 05:00:00,122.95,123.89,121.68,122.05,398428.0,122.6077,1641790800000,7312,
2022-01-11 05:00:00,122.28,122.975,120.73,122.52,135493.0,121.9709,1641877200000,4267,
2022-01-12 05:00:00,122.32,122.9959,120.62,121.3,206649.0,121.3236,1641963600000,5188,
2022-01-13 05:00:00,121.67,122.33,120.37,121.67,193217.0,121.6937,1642050000000,4583,
2022-01-14 05:00:00,121.28,121.49,119.87,121.18,178973.0,120.6355,1642136400000,5021,
2022-01-18 05:00:00,120.61,121.4,118.83,120.37,232533.0,120.3454,1642482000000,6225,
2022-01-19 05:00:00,120.76,121.9,120.5,121.42,252601.0,121.3433,1642568400000,5744,
2022-01-20 05:00:00,120.82,122.31,118.81,118.83,297725.0,120.3184,1642654800000,7623,
2022-01-21 05:00:00,119.22,120.07,115.83,116.38,351834.0,117.6827,1642741200000,9269,
2022-01-24 05:00:00,115.59,117.25,114.03,117.03,329256.0,115.853,1643000400000,8309,
2022-01-25 05:00:00,114.72,116.935,113.1,116.03,469961.0,115.2833,1643086800000,10617,
2022-01-26 05:00:00,115.78,117.55,114.41,115.19,1542526.0,115.422,1643173200000,14117,
2022-01-27 05:00:00,115.78,118.3,112.67,113.65,263932.0,114.4785,1643259600000,7910,
2022-01-28 05:00:00,113.83,115.1,112.45,115.05,323081.0,114.3534,1643346000000,7149,
2022-01-31 05:00:00,115.01,117.34,114.23,117.3,486256.0,116.6742,1643605200000,7365,
2022-02-01 05:00:00,117.09,118.93,116.45,117.48,214033.0,117.4057,1643691600000,5042,
2022-02-02 05:00:00,116.7,117.02,116.01,116.62,363591.0,116.5606,1643778000000,5706,
2022-02-03 05:00:00,116.44,117.38,114.91,115.19,167719.0,115.9741,1643864400000,5336,
2022-02-04 05:00:00,114.68,116.03,113.66,115.26,242710.0,115.1156,1643950800000,6189,
2022-02-07 05:00:00,115.62,116.03,114.33,114.74,263267.0,115.0155,1644210000000,6887,
2022-02-08 05:00:00,115.0,116.435,114.74,116.05,204194.0,115.9476,1644296400000,5974,
2022-02-09 05:00:00,117.08,117.655,116.2,116.55,295864.0,116.662,1644382800000,6061,
2022-02-10 05:00:00,115.52,117.25,113.66,114.61,267089.0,115.0843,1644469200000,6133,
2022-02-11 05:00:00,115.04,116.44,112.87,113.71,230590.0,114.1495,1644555600000,5974,
2022-02-14 05:00:00,113.71,114.51,112.4375,114.1,266626.0,113.7885,1644814800000,5830,
2022-02-15 05:00:00,114.66,116.13,113.4,114.1,263033.0,114.3195,1644901200000,7096,
2022-02-16 05:00:00,114.25,115.076,113.1,114.7,271428.0,114.3949,1644987600000,6875,
2022-02-17 05:00:00,113.96,116.26,113.315,115.61,362421.0,115.5402,1645074000000,8146,
2022-02-18 05:00:00,116.28,121.52,114.42,118.44,462347.0,118.794,1645160400000,9903,
2022-02-22 05:00:00,118.5,120.18,117.32,119.1,437171.0,118.923,1645506000000,9972,
2022-02-23 05:00:00,119.74,120.305,117.6,117.69,321074.0,118.3465,1645592400000,8396,
2022-02-24 05:00:00,116.27,117.34,114.72,116.87,349261.0,116.2119,1645678800000,7780,
2022-02-25 05:00:00,117.16,121.6,116.82,120.97,260057.0,120.5472,1645765200000,7049,
2022-02-28 05:00:00,119.47,122.03,119.28,121.88,316349.0,121.0247,1646024400000,7343,
2022-03-01 05:00:00,121.96,122.94,118.53,119.1,325723.0,119.6373,1646110800000,9235,
2022-03-02 05:00:00,119.09,120.06,118.0,118.38,435089.0,118.6691,1646197200000,10231,
2022-03-03 05:00:00,118.88,119.75,117.41,119.33,196105.0,118.997,1646283600000,6037,
2022-03-04 05:00:00,118.05,120.39,117.69,120.19,206665.0,119.3744,1646370000000,5315,
2022-03-07 05:00:00,119.31,120.35,116.45,116.52,337261.0,117.9597,1646629200000,9803,
2022-03-08 05:00:00,116.96,118.29,110.04,110.19,382823.0,112.2995,1646715600000,9933,
2022-03-09 05:00:00,111.18,114.38,111.18,113.27,224768.0,113.2321,1646802000000,7126,
2022-03-10 05:00:00,111.83,113.66,111.44,112.26,223236.0,112.3387,1646888400000,5732,
2022-03-11 05:00:00,113.3,113.72,112.24,112.3,237053.0,112.7967,1646974800000,5853,
2022-03-14 04:00:00,112.82,115.91,112.77,114.52,173771.0,114.784,1647230400000,5012,
2022-03-15 04:00:00,115.09,116.93,114.09,116.81,199537.0,115.9027,1647316800000,7233,
2022-03-16 04:00:00,117.72,119.11,114.36,116.99,266775.0,116.3386,1647403200000,6748,
2022-03-17 04:00:00,117.24,118.51,115.27,118.41,163294.0,117.9807,1647489600000,6275,
2022-03-18 04:00:00,118.1,118.83,116.27,117.74,286789.0,117.7465,1647576000000,4931,
2022-03-21 04:00:00,117.73,118.67,116.665,118.66,309051.0,117.9007,1647835200000,6232,
2022-03-22 04:00:00,119.78,120.46,117.36,117.67,294056.0,118.2214,1647921600000,8030,
2022-03-23 04:00:00,117.8,118.1,114.04,114.67,256834.0,114.9896,1648008000000,6135,
2022-03-24 04:00:00,115.0,116.22,113.995,115.85,210144.0,115.5558,1648094400000,4394,
2022-03-25 04:00:00,116.85,117.26,116.0,117.24,148002.0,116.8767,1648180800000,4970,
2022-03-28 04:00:00,117.43,117.5738,115.01,116.49,167286.0,116.0716,1648440000000,5466,
2022-03-29 04:00:00,117.51,119.59,117.51,119.32,184696.0,118.9558,1648526400000,5174,
2022-03-30 04:00:00,119.57,119.57,118.24,118.82,156595.0,118.8231,1648612800000,4881,
2022-03-31 04:00:00,118.4,119.829,117.47,117.5,211182.0,118.4721,1648699200000,5380,
2022-04-01 04:00:00,118.15,119.64,117.29,119.02,400825.0,118.5388,1648785600000,7681,
2022-04-04 04:00:00,118.72,118.72,115.2,118.41,286349.0,117.7002,1649044800000,8115,
2022-04-05 04:00:00,117.65,119.21,117.59,117.73,225256.0,118.1183,1649131200000,6158,
2022-04-06 04:00:00,117.26,118.92,116.35,118.34,194314.0,118.1412,1649217600000,6843,
2022-04-07 04:00:00,117.91,120.595,116.63,120.0,331904.0,119.6682,1649304000000,7593,
2022-04-08 04:00:00,119.81,122.23,119.81,121.41,305272.0,121.5076,1649390400000,7943,
2022-04-11 04:00:00,121.13,122.3,118.96,118.96,207964.0,120.3635,1649649600000,5736,
2022-04-12 04:00:00,119.23,120.19,116.395,117.01,187436.0,117.4295,1649736000000,6217,
2022-04-13 04:00:00,116.89,118.0,116.89,117.88,120171.0,117.6138,1649822400000,4866,
2022-04-14 04:00:00,117.42,118.7,116.96,117.4,163341.0,117.7406,1649908800000,4907,
2022-04-18 04:00:00,116.78,117.5359,113.58,114.01,137099.0,114.6135,1650254400000,3980,
2022-04-19 04:00:00,114.57,117.635,113.51,117.23,221601.0,116.6376,1650340800000,5461,
2022-04-20 04:00:00,117.98,119.75,117.3332,119.5,141190.0,119.1207,1650427200000,4378,
2022-04-21 04:00:00,120.25,120.35,118.335,118.94,178179.0,119.0161,1650513600000,4188,
2022-04-22 04:00:00,118.6,118.6,116.43,116.62,179875.0,117.0146,1650600000000,4378,
2022-04-25 04:00:00,116.5,116.5,112.175,115.4,379644.0,114.5044,1650859200000,8329,
2022-04-26 04:00:00,114.37,115.35,110.44,110.58,295254.0,111.2678,1650945600000,6545,
2022-04-27 04:00:00,110.94,112.99,110.57,111.1,231456.0,111.6537,1651032000000,6049,
2022-04-28 04:00:00,111.18,112.24,109.55,112.1,289153.0,111.3407,1651118400000,6778,
2022-04-29 04:00:00,112.52,116.4507,112.52,114.83,640172.0,115.0238,1651204800000,11625,
2022-05-02 04:00:00,115.42,116.97,112.07,113.39,456988.0,113.8377,1651464000000,8712,
2022-05-03 04:00:00,112.99,115.365,112.64,113.83,225358.0,114.1381,1651550400000,6041,
2022-05-04 04:00:00,113.36,116.78,112.72,116.75,346897.0,115.3142,1651636800000,6977,
2022-05-05 04:00:00,115.49,116.18,111.8725,112.8,179038.0,113.2061,1651723200000,6088,
2022-05-06 04:00:00,111.69,111.72,109.76,111.23,331810.0,110.8637,1651809600000,7198,
2022-05-09 04:00:00,110.0,111.1,106.655,107.01,276713.0,108.0235,1652068800000,7415,
2022-05-10 04:00:00,107.56,108.63,103.94,104.54,411834.0,104.9375,1652155200000,8375,
2022-05-11 04:00:00,104.39,107.42,103.51,104.06,297836.0,104.7768,1652241600000,7934,
2022-05-12 04:00:00,103.72,106.66,103.25,106.45,389328.0,105.7863,1652328000000,8226,
2022-05-13 04:00:00,107.0,108.29,106.76,107.51,226883.0,107.4504,1652414400000,6162,
2022-05-16 04:00:00,107.29,108.42,106.35,108.33,202521.0,107.7842,1652673600000,6116,
2022-05-17 04:00:00,110.13,110.39,108.22,108.96,311156.0,109.2566,1652760000000,7896,
2022-05-18 04:00:00,107.99,108.9,103.57,104.07,325904.0,104.7791,1652846400000,9151,
2022-05-19 04:00:00,103.39,104.6,102.26,103.49,357006.0,103.603,1652932800000,9367,
2022-05-20 04:00:00,104.98,105.295,97.19,99.72,796300.0,99.4103,1653019200000,32678,
2022-05-23 04:00:00,100.95,104.59,99.665,104.22,545172.0,102.7838,1653278400000,12822,
2022-05-24 04:00:00,104.5,105.615,102.82,104.95,567448.0,104.6978,1653364800000,12106,
2022-05-25 04:00:00,103.48,105.27,102.48,104.45,493448.0,104.2623,1653451200000,9202,
2022-05-26 04:00:00,105.7,106.9518,105.28,106.53,188191.0,106.5022,1653537600000,4822,
2022-05-27 04:00:00,106.96,108.93,106.96,108.89,178019.0,108.316,1653624000000,5734,
2022-05-31 04:00:00,108.08,109.43,106.35,107.09,306050.0,107.1613,1653969600000,7017,
2022-06-01 04:00:00,107.49,107.915,105.63,107.25,313932.0,106.9731,1654056000000,8179,
2022-06-02 04:00:00,107.6,110.0283,106.83,109.83,145425.0,109.2726,1654142400000,5833,
2022-06-03 04:00:00,108.72,109.7598,108.235,108.8,139814.0,109.0362,1654228800000,5063,
2022-06-06 04:00:00,109.59,110.805,108.33,109.25,207415.0,109.1705,1654488000000,5610,
2022-06-07 04:00:00,108.64,110.34,108.4,110.18,132946.0,109.8091,1654574400000,4517,
2022-06-08 04:00:00,108.96,109.385,107.26,107.71,157655.0,108.0624,1654660800000,5258,
2022-06-09 04:00:00,106.77,107.7,105.8,105.83,193753.0,106.5711,1654747200000,6362,
2022-06-10 04:00:00,103.58,105.89,103.13,105.2,266773.0,105.0908,1654833600000,7117,
2022-06-13 04:00:00,102.87,103.23,101.05,102.01,252091.0,102.1044,1655092800000,7150,
2022-06-14 04:00:00,101.61,102.28,98.39,99.52,227948.0,99.6394,1655179200000,7023,
2022-06-15 04:00:00,100.3,101.24,98.54,100.37,283340.0,99.9004,1655265600000,5750,
2022-06-16 04:00:00,98.89,98.89,94.03,94.77,620352.0,95.4086,1655352000000,12444,
2022-06-17 04:00:00,94.49,98.456,94.48,97.5,458524.0,96.9411,1655438400000,7702,
2022-06-21 04:00:00,97.98,98.7,97.09,97.19,236117.0,97.4944,1655784000000,5882,
2022-06-22 04:00:00,96.37,98.84,96.2376,98.46,228179.0,98.3569,1655870400000,6480,
2022-06-23 04:00:00,98.62,99.32,97.17,98.93,152130.0,98.3851,1655956800000,5379,
2022-06-24 04:00:00,100.05,102.65,99.6668,102.62,327255.0,102.2995,1656043200000,6894,
2022-06-27 04:00:00,102.62,104.15,101.99,103.57,185180.0,103.5515,1656302400000,6309,
2022-06-28 04:00:00,104.22,104.37,101.98,102.7,280199.0,102.6657,1656388800000,7391,
2022-06-29 04:00:00,102.48,103.89,101.3394,103.39,220930.0,103.2356,1656475200000,6418,
2022-06-30 04:00:00,102.33,103.5,101.37,103.21,205874.0,102.9529,1656561600000,5234,
2022-07-01 04:00:00,103.34,104.67,102.16,104.49,262328.0,103.7597,1656648000000,7341,
2022-07-05 04:00:00,103.34,103.34,100.97,102.92,230164.0,102.1689,1656993600000,6673,
2022-07-06 04:00:00,103.53,103.55,101.51,102.64,286394.0,102.5251,1657080000000,8115,
2022-07-07 04:00:00,102.45,103.3,101.85,103.11,221222.0,102.7524,1657166400000,6943,
2022-07-08 04:00:00,102.73,103.0282,100.0,100.01,208051.0,100.5787,1657252800000,5338,
2022-07-11 04:00:00,99.81,100.1226,98.47,99.55,186923.0,99.4688,1657512000000,5919,
2022-07-12 04:00:00,99.47,101.85,99.22,100.51,284288.0,100.69,1657598400000,6673,
2022-07-13 04:00:00,99.73,101.31,99.51,100.67,202511.0,100.6977,1657684800000,5765,
2022-07-14 04:00:00,99.58,99.91,98.34,99.3,199805.0,99.2072,1657771200000,4787,
2022-07-15 04:00:00,100.81,100.81,99.21,100.01,195284.0,99.9809,1657857600000,5218,
2022-07-18 04:00:00,100.57,100.95,97.7,98.1,179934.0,98.8861,1658116800000,5037,
2022-07-19 04:00:00,98.55,101.09,98.55,101.03,635394.0,100.1948,1658203200000,8877,
2022-07-20 04:00:00,100.67,102.48,100.66,101.82,458852.0,101.7693,1658289600000,8524,
2022-07-21 04:00:00,101.91,103.595,101.58,103.48,138850.0,103.1842,1658376000000,4247,
2022-07-22 04:00:00,103.61,103.9837,102.33,103.6,214586.0,103.2525,1658462400000,5766,
2022-07-25 04:00:00,103.72,104.51,102.91,103.92,267351.0,103.8749,1658721600000,5994,
2022-07-26 04:00:00,103.11,103.88,101.88,103.83,262182.0,103.326,1658808000000,6116,
2022-07-27 04:00:00,104.24,106.54,103.64,106.03,229187.0,105.3194,1658894400000,6420,
2022-07-28 04:00:00,106.08,107.82,105.15,107.82,249802.0,106.736,1658980800000,6824,
2022-07-29 04:00:00,107.17,109.49,106.385,107.76,424421.0,108.0834,1659067200000,7186,
2022-08-01 04:00:00,106.3,108.65,105.614,108.2,276995.0,107.9471,1659326400000,7574,
2022-08-02 04:00:00,107.86,108.04,105.83,106.59,209714.0,106.6182,1659412800000,6717,
2022-08-03 04:00:00,107.33,108.82,106.44,107.64,260719.0,107.9419,1659499200000,8813,
2022-08-04 04:00:00,107.2,107.22,105.855,106.44,292585.0,106.384,1659585600000,7134,
2022-08-05 04:00:00,105.67,106.67,105.09,105.65,174609.0,105.6341,1659672000000,6056,
